ticker,close,velocity,acceleration,rsi
BIO,300.7900085449219,6.49695721034503,1.1880812222859087,58.1521734745259
JAN,28.25,7.7421843623450375,-0.005464669066037653,66.31893177861605
PCVX,53.68000030517578,5.940403088617521,0.010481956898797717,60.632655884309756
ENS,221.89999389648438,-2.654092183704443,-0.0659506557748688,47.32836084613655
RGEN,147.00999450683594,11.3543324869456,0.45501691208473494,71.35771398397205
MANH,137.85000610351562,4.210770619609735,0.7759720863608894,49.537695486387456
VOYA,91.13999938964844,1.0421313450217013,-0.03447590620943641,65.50386858316824
QRVO,93.87999725341797,-4.612884576297279,-0.15785009867691135,44.787529522354596
BIRK,44.41999816894531,-3.6651538040249982,-0.018980975664557587,52.57683019147917
EMN,70.70999908447266,-2.4555094933814554,0.026622954798916465,44.910448337878364
QGEN,39.40999984741211,6.6576428516342965,0.05888497154002481,64.79870855518325
VLY,14.720000267028809,4.471256973870272,0.0011503155387370123,66.7689429464224
KNTK,49.75,6.920269299761592,0.11128195284287296,62.37754125614425
TEX,71.80999755859375,7.46782084190289,-0.07289820319091778,64.39677965637793
CDP,36.31999969482422,8.353219566893026,0.07889741241706838,75.55832700160435
RAL,72.16999816894531,5.852152898078876,-0.04716222937930503,72.23096031867554
ATR,125.9800033569336,4.70412539599836,0.009775977051728724,68.95879464805842
JHG,51.93000030517578,0.09637478032219192,0.00047657540400920795,61.1769304563439
ECG,155.3300018310547,-1.509102010965313,-0.4655697683860729,52.05513723842732
OSCR,28.670000076293945,1.4149261126751176,-0.09357867137075626,64.04775792190298
IMVT,38.849998474121094,9.932083492863741,-0.004040118822008276,72.65798720589545
NPO,379.260009765625,-0.10272201689161843,-0.5063156953719083,69.22844820957147
AXS,108.72000122070312,7.654226676349654,0.14147999141648737,68.65011642931086
FNMA,6.880000114440918,8.176100157393746,0.004259501756190998,50.7678897090448
FRHC,128.82000732421875,-10.354899053604647,-0.2285997749888693,35.95290449368102
YMM,7.539999961853027,-5.750000476837158,-0.0035892456220915636,34.07042830941738
PTGX,121.87999725341797,7.992199711399868,-0.1483660542998404,71.16723328356241
HIMS,33.939998626708984,-4.313511534646096,-0.030040642890669655,64.16425997376518
FRO,35.52000045776367,-13.217688265514113,-0.39747627872038893,44.50612277919711
MIDD,173.36000061035156,0.6385731676497717,0.09827063525860336,66.5686080281107
REXR,34.349998474121094,3.7137668535737847,0.07330740070800151,49.56215944604166
TAP,41.47999954223633,5.279182578181443,0.07726629833366683,57.18703748679224
CHYM,20.31999969482422,15.454541218182364,0.1782710759092967,62.40899772221096
HESM,37.880001068115234,3.1590408737734172,0.05714991361284544,48.40935900360784
SFM,82.13999938964844,2.0499460425773117,-0.02575614453110875,47.985973027702784
BMNR,13.5600004196167,-15.98512433455511,-0.012844957950441716,31.944303549779107
PLXS,287.44000244140625,-4.1770839511641435,-0.6021106156129878,53.861044589038755
XE,18.479999542236328,-19.230768268886816,-0.06258869453325566,35.99804202973927
KGS,76.2699966430664,10.248621431937432,0.25270901219078146,66.45218524550378
POOL,211.61000061035156,6.342024608678669,0.2942406771001247,66.84752647360231
KLAR,20.290000915527344,7.696394645412351,0.09255689488093333,69.15039512053357
SYRE,87.88999938964844,-0.5093920838767068,-0.4047337704655609,57.81542151054742
EQX,9.710000038146973,-7.611799936373319,0.021078050108958024,36.53694106932354
VSH,56.349998474121094,-13.174118414078148,-0.2266223804687284,52.85096329223285
CMC,69.19999694824219,-4.367058644907358,-0.1783394073258403,40.75357487754835
FSS,125.37000274658203,5.779620568286913,0.03878207409404277,68.60943342488
CELH,29.850000381469727,-3.0844119452045975,0.07787807432558869,50.19953697083852
CHWY,18.549999237060547,1.8671069175275397,0.05091723602980047,40.87207921597671
PDI,16.56999969482422,1.40758592465436,0.013518096145232167,53.24657053349496
MIRM,123.7699966430664,15.532530398825845,0.4326522435709892,79.44289369904897
KNSL,308.42999267578125,-0.2554842965536415,0.04189503942060169,49.60974445354653
RYTM,109.83999633789062,13.482792952706504,0.02377040234114869,77.25362821448934
UGI,35.43000030517578,4.791478456326006,0.03906875182296175,59.9667554097648
MWH,35.84000015258789,4.7646919372618886,0.05770288839362592,51.90172276739811
TTEK,29.260000228881836,6.944442895265928,0.05678180190886706,57.75816477826239
STAG,39.41999816894531,4.285711546513624,0.01762704992832853,61.981475980488845
PB,74.36000061035156,4.452869869690503,0.06138413551113353,71.35142698072802
SAIL,13.180000305175781,-1.1252784650322039,0.09449333272619875,41.33977349774373
KMX,52.7599983215332,-1.6772298330938424,-0.04442905729841318,63.32856599633559
FLR,53.63999938964844,-0.037272563959271886,-0.07051749152663822,62.153389243656484
BAH,62.220001220703125,-6.238697033710749,0.20527504870555902,29.011567108682996
LOAR,79.13999938964844,10.422773003418165,0.19095653985136885,76.91627188292995
JXN,106.73999786376953,-0.0655366505235789,-0.09103790210679819,48.052181896258595
ETSY,78.04000091552734,5.530769622813861,-0.011360967670863253,74.31935125013584
MYRG,477.95001220703125,3.6543061983245444,-0.11067013042519136,59.814042386127404
HQY,88.45999908447266,3.814106366528795,0.3129433779015099,56.091884362130976
NFG,78.44999694824219,3.3733002756394,0.12611246425873102,51.03980899451968
AXTA,34.5,-0.8050568979995103,-0.04261549856633029,65.40328285308897
THG,212.61000061035156,7.4167677854749705,0.16869675534447026,73.30181114702998
CEF,40.40999984741211,-6.652808979457031,0.04518578872213208,34.41573649581909
CRUS,146.5,-11.367895244333113,-0.5615207005689669,33.46910580023733
YOU,53.18000030517578,4.7468974309287715,0.11394739157741207,47.72964317028558
EAT,171.4600067138672,3.984478954780811,-0.20241066183670142,68.2035409702232
RSI,31.559999465942383,8.490887935367567,0.06238370705778973,67.92112946044135
VNO,39.11000061035156,3.4382417081287553,0.04712834736100446,70.10042352422657
EDU,46.34000015258789,2.932029501116066,0.10468927271427542,46.95107643248661
MHK,121.0,11.995556251990058,0.3735412041141022,66.54144034059605
GTES,28.790000915527344,2.4919927345566895,0.012775541830157722,63.30620527891823
AROC,41.95000076293945,13.470379707338335,0.10252091504686767,73.76461104180864
KEX,136.77999877929688,-2.744596577860673,-0.06447468924868227,39.01166905798111
MAC,25.829999923706055,9.310202459051128,0.037610879717980716,68.4220473820701
SNAP,4.409999847412109,-5.364807042619011,0.012982321274658398,32.389201547168724
ACMR,104.5,-4.887596807445322,-0.18176279988729682,63.21716614906362
CBC,29.860000610351562,5.77400316877975,0.047639707796741926,64.92660731899399
JBTM,139.3000030517578,5.068638654317076,0.23355343124614913,64.5591186601592
EXP,233.8300018310547,4.118799503331787,0.06511798955051784,64.63383234088181
GAP,20.209999084472656,-4.444447049701358,-0.010935315835187698,38.40395386508565
LNTH,109.80000305175781,5.719239752068921,0.13341881421657398,70.7659499622041
SLAB,218.4199981689453,-0.6052340528121445,0.0032904223942858968,51.71322910772302
NEU,792.8200073242188,1.620140835076541,0.27208909384230395,56.67545185982273
ORA,116.12000274658203,-9.053882778010253,-0.2280300864964926,31.81173961269603
Z,31.149999618530273,-2.9897258597740595,0.1157201638038714,36.602531173989114
IDCC,275.8599853515625,-6.816654036914476,-0.6512191249234085,48.564263822779225
HR,20.5,3.587665748492144,0.01264239766537284,58.401370702775154
VFS,3.0299999713897705,-0.3289470588401375,-0.002042629157918835,31.476815679780017
CAMT,153.72000122070312,-21.23386024994828,-1.300305280856918,40.06097038986223
VSXY,88.5,7.9531548866605,0.29607533559724164,74.6189698864053
MOS,22.3799991607666,-2.2707443948728137,0.05898409582277253,51.00504064741772
ACA,144.5,6.375150099804435,-0.20471357169425541,72.3213270037463
AVTR,10.279999732971191,7.306887420040181,0.02759856086114454,68.08887763640551
LSTR,209.2100067138672,0.8727159453467535,0.1369215186877195,53.32245718549662
AVT,86.37000274658203,-5.575596814321209,-0.2595596114239336,47.68900708210078
LNC,36.720001220703125,-1.2106456023937868,-0.04026328946320207,52.81011942984793
PTCT,84.43000030517578,6.900476977206581,-0.0674878957311309,71.0256661362311
RRR,67.26000213623047,9.66900395912446,0.2613556287085357,73.91128013360208
SGHC,13.770000457763672,3.7548484322833406,0.0196205253459234,59.09528596837455
TRNO,64.83000183105469,2.333231711410922,0.009393428562997852,49.64506656501728
GVA,160.38999938964844,9.35433380513131,0.3095980755917336,76.30571366709704
ROAD,122.87000274658203,0.07330507263397423,-0.33354232406675854,54.96362246455192
LQDA,78.16999816894531,9.990148451679481,0.03452863910725945,74.59851993033547
OMF,60.439998626708984,3.8844934851816255,0.038980910653994005,70.46250767027283
AWI,162.16000366210938,2.7109188288116237,0.1749982568599613,56.84396986119077
AVAV,137.9499969482422,-18.666354311761683,0.10631179672197444,32.04979242270646
GOLF,118.08000183105469,9.607349996852069,0.2492771995006806,84.68654751823357
LEA,136.83999633789062,-2.0822924236918605,0.03882460206295191,46.347500615670995
FNB,19.239999771118164,5.540319551527187,0.008209956969889631,71.15225403651166
LKQ,27.030000686645508,4.767447619991085,0.045626323966382054,56.3879009556093
M,25.700000762939453,7.576397737688061,0.02660392873530748,68.0954988947555
ST,46.849998474121094,-7.465934256862254,-0.12795406943377108,44.443772938333076
FAF,67.05999755859375,-2.287628963508414,-0.03067009111519986,51.05350561393935
PPC,28.610000610351562,4.721818923635401,0.10321335247461871,49.068227511319975
CPB,22.729999542236328,7.470448946588916,0.05533004646599521,61.44644324099473
VFC,17.3700008392334,0.23081890192408883,0.012792247977988974,51.67088023016849
NOV,18.65999984741211,0.0,0.023915031489904925,39.36493406751216
CAG,14.079999923706055,6.6666676299740715,0.029232304850724505,59.8037384399104
GBCI,52.040000915527344,7.4540586157414435,0.09208252963415103,70.10552426821862
LAD,292.1000061035156,-0.9326776133877824,-0.48423478050042323,48.37336317600483
BYD,89.69999694824219,5.928196297797576,0.13218971586671402,63.14578337164742
BILI,16.469999313354492,-4.244194286071676,0.01991949946019711,37.47810224633444
ACI,13.59000015258789,1.0408947606550418,0.009334334509895403,31.983011196951196
PACS,41.88999938964844,14.484829775781499,0.16948624541434082,68.35561018978734
TMHC,71.80999755859375,0.3213128271244048,-0.05752374164881324,73.32947218001188
TTAN,69.19999694824219,7.737806837234247,0.44621853316446736,54.403170879203515
RYN,21.90999984741211,4.4327946876430175,0.012676556230844876,64.37855455032715
EPRT,30.6200008392334,4.29155382387013,0.02956311126787814,52.070470993219914
SWX,90.93000030517578,2.7689837876234638,0.1173625048850406,61.12827873369996
CACC,628.8599853515625,8.474635871528955,1.1416311937655816,73.23495608242985
MBLY,7.809999942779541,-7.6832162226538685,0.0188166326735619,32.307393058094235
MRCY,109.37999725341797,-3.976829306518802,0.1288978851661149,53.16587596623731
MSA,170.4600067138672,3.692443181918386,0.30277647581786216,59.84033574431646
MSM,118.18000030517578,-0.27845905417784184,-0.0095417413733756,61.37732026034287
SRRK,54.7599983215332,15.698280589550842,0.11913766069036835,71.69443349747193
KLIC,125.22000122070312,2.7488294072554686,-0.36980880548370454,64.56998591784435
GTX,35.11000061035156,2.30186748995363,0.045717541391620875,65.36918441689714
CHRD,116.58999633789062,-5.303773767884104,-0.07578438922780117,30.019926600148352
COGT,38.099998474121094,10.306883220125696,0.012660017209943919,70.16901998585561
WH,87.37000274658203,3.7648526285439763,0.05894001556951278,61.87416342277907
FND,59.61000061035156,12.408074641750787,0.18892458174240656,67.28100639653537
INGM,27.530000686645508,-2.720843007679943,-0.010326825864262035,43.53079180897075
CPA,157.19000244140625,4.071775310280074,-0.08456210933092745,70.75588460571984
AN,191.63999938964844,1.5365019667700546,-0.06168790795523715,49.556696622562555
GATX,182.25999450683594,2.872944849859353,0.009859035670980232,59.34236208214885
CGON,71.95999908447266,17.812699618954973,0.0640593022785001,68.38537676482805
CROX,127.76000213623047,2.16713236172493,0.4039074799171436,63.1087262441543
IFS,55.790000915527344,-2.6012533092233094,-0.06973277527655419,61.79516011329932
SNDR,36.290000915527344,1.7096429516091545,0.06314985831362208,55.8440405657395
FLG,15.279999732971191,4.300342190071136,0.0008935861452592508,67.70494952909914
UBSI,46.209999084472656,4.029718571169956,0.009509691474763216,66.67093998757258
PCOR,41.90999984741211,4.801195519777044,0.31971003669580655,42.249625163743765
ACT,45.2400016784668,6.723289289582592,0.05820959774347906,68.8848711461097
URBN,73.54000091552734,-3.768643447296377,0.1029327454333816,51.43833250624553
ENPH,47.58000183105469,-8.990047930344268,0.17543267952481023,43.494790711122086
VIPS,13.140000343322754,-1.4253531993305248,0.00970029852105897,38.27381795246869
STWD,16.81999969482422,0.7185564455246407,0.015945324378357356,45.81722193489278
TXNM,57.130001068115234,0.1226773451445878,0.006338492795675887,35.42214067055352
TWST,99.83999633789062,14.024667795449966,0.2587595151741855,79.37900883561359
IBP,233.32000732421875,6.904928899985681,0.4856294075462477,59.04107234830165
LW,45.15999984741211,0.22192292737116315,-0.010314066483050444,56.1629824548395
SM,26.34000015258789,-2.947675958186194,0.04980686244670074,34.33154575112374
GLBE,36.40999984741211,10.87088817977028,0.17149068030994474,67.57026263319366
CHDN,88.93000030517578,0.7477100795394878,0.24577511686849018,52.87203143310932
MTDR,49.900001525878906,0.6860374155903963,0.048797959468541485,36.63462744259908
PAYC,129.17999267578125,3.4681571922947816,0.4641471325647373,47.358939648611134
KRMN,46.41999816894531,-7.841971107208143,0.05862314803558277,37.12146617596709
VSEC,223.69000244140625,7.455447186902172,-0.015037459744362991,68.67025789377853
HNGE,78.97000122070312,13.756847167463565,0.31173842963028076,84.42657572183428
CZR,30.190000534057617,3.3196483350353905,0.018527882942173446,68.67345959607913
NSA,45.43000030517578,2.204723341767433,0.02393714215472964,63.88604713662072
RGTI,18.360000610351562,-14.044943418897324,-0.04238467314779487,41.762071841743825
CHE,463.2799987792969,6.191122572214923,0.957154564786217,69.80118288156405
SSRM,29.3799991607666,-5.072702951441678,-0.0015599394192286065,49.905712700462836
INGR,97.5,-0.4390894555660029,0.03221578527553737,34.959265997505895
NE,39.16999816894531,-8.970487380559105,-0.039434370250480244,26.777044054382074
ABCB,91.0,3.893142829867021,0.06763116548861903,66.51347737297698
ESAB,100.61000061035156,-5.26365018693454,-0.057422642235594346,56.74315396240265
LGND,295.9200134277344,12.457245935435505,0.7143928208094543,77.87281854822966
SPHR,169.85000610351562,7.95779833900038,0.4925855136723669,74.59561451176437
FRMI,9.489999771118164,-0.10526556717722041,0.02050567986857299,67.16170999753417
CWST,94.3499984741211,8.473206291960901,0.26513374544769985,65.20023096073896
PSMT,195.9199981689453,9.80216679431497,0.5193127850233212,80.71469731059183
POR,52.529998779296875,5.802516962072233,0.0763551335510757,66.33913027374578
DBX,26.639999389648438,2.5799002464717535,0.07553643715877689,50.543174892899664
HWC,74.43000030517578,5.965265616227323,0.05319667017398011,69.5724787469741
ALK,53.86000061035156,9.338210405109868,0.061087576102593744,71.55544934197286
BLTE,148.72999572753906,1.7862035981169828,-0.11988310154173232,53.206642788881354
WFRD,82.75,-9.691146479966447,-0.054465204142803536,24.153899170773414
BZ,13.289999961853027,-2.992699657811905,0.02484956698502644,46.447643577573665
KRG,29.229999542236328,4.729486571267798,0.022297310833753525,67.8816506368076
FIGR,26.860000610351562,-5.919434927743218,0.0044034495490357095,35.20768304731105
MCY,107.47000122070312,4.6751759397709565,0.09190461375040981,64.85378955080643
MTRN,287.0199890136719,4.378492088991288,0.17187336873505643,76.41693479067236
ESNT,64.01000213623047,9.512405989250842,0.16206440248083054,69.43004216255392
AUB,41.86000061035156,6.894792577783636,0.033881714616424086,70.0288896678916
PECO,42.34000015258789,4.055054267797007,0.012335942446449144,64.99117521922958
OZK,51.810001373291016,5.734696680185746,0.07350235254503557,63.30826885647355
HOMB,29.299999237060547,5.967448973939547,0.036236289190390625,71.33897094303526
MATX,194.49000549316406,1.699435215774543,-0.15904136930297685,56.0087799001461
BLCO,16.31999969482422,9.751175658537132,0.053846389004921585,64.89264941141788
CAR,166.49000549316406,-11.643574821110269,-0.8237536595274793,41.94975643403164
OUT,33.2400016784668,6.606803570008503,0.09335417024562861,66.27472570068201
MTG,27.84000015258789,6.830394179292972,0.03870143139527532,71.56014400997407
ESTC,56.2400016784668,-4.629471741095849,0.026961620747146364,45.6976242418351
NAVN,22.81999969482422,4.153353965082722,0.08513985926346512,61.441407102671725
CVLT,140.0399932861328,7.698219334621504,0.4947606327670071,76.18799425736523
MORN,154.64999389648438,0.631182500606658,0.735235633062902,39.85054296255942
XENE,59.7400016784668,12.908716406637359,0.23730192058428612,71.43925226263717
GXO,50.189998626708984,3.186676103023179,-0.0030325281447035057,51.308829219996504
HXL,96.20999908447266,-3.6454676467439753,-0.15920769733451756,56.438544722036795
BKH,76.04000091552734,4.52233802821628,0.10710585094925146,60.775928064218405
NJR,57.61000061035156,4.5363817316496515,0.07179629699409312,64.09882611924445
SEZL,170.55999755859375,4.458598011834345,0.1932877404163449,76.29298772232593
ENVA,221.3800048828125,12.204765057574667,0.17776883436973634,85.95467773281638
RUSHA,72.77999877929688,3.808298596065187,0.021226688512952063,59.58443127197943
RIG,5.110000133514404,-3.7664747913433314,0.007214556880658474,31.683373581317895
SIGI,96.30000305175781,4.3223980052988376,0.05552052907127525,73.27399435874011
PCTY,106.3499984741211,5.234515182389793,0.5024101065738864,49.255105545065035
TFX,129.86000061035156,2.2519689845287894,0.3226889038902292,52.68920097329221
MTH,85.18000030517578,12.478537606425414,0.164879420354187,77.8860775609198
DUOL,121.48999786376953,-3.241477997739619,-0.5078670558507286,52.964558933338566
CLF,9.949999809265137,-18.97394115938065,-0.04213531430686063,34.02021849016805
AIR,143.13999938964844,6.123957746007239,0.21456213983969707,75.51271296545072
LPX,82.37999725341797,6.214543381313137,0.14857721736384555,65.06082532986964
REYN,26.81999969482422,12.358603903951776,0.056038685181330816,85.49066708044312
SEI,76.80000305175781,-7.335900582947254,-0.23104936375822183,52.267197169288224
FINN,18500.0,0.0,-13.861290078138921,53.15624120828909
MAAS,12.770000457763672,-32.43385864810557,-0.4639877392548868,46.39003295667507
PRM,34.400001525878906,-8.94652557604152,-0.19707327486129111,51.85069072200442
BXSL,23.989999771118164,1.6094839091194044,0.017059907682433505,54.43296559445926
DOX,51.970001220703125,0.9714396505568405,0.1691972134733426,32.83747386795143
NOVT,157.5500030517578,1.4488087287738998,0.26195332347135736,52.66631743218123
AMRX,17.229999542236328,6.29241527065055,-0.029617391243964897,80.53755423816199
BC,87.08000183105469,4.200074367653558,0.11289710350188054,61.4324076749745
APPF,155.63999938964844,2.7326728644544143,0.8454725083828536,48.43733989721711
BEPC,37.709999084472656,0.7749891227092955,0.017026081481468253,49.86859559021314
ZGN,13.149999618530273,-5.191061809441293,0.020017975909584818,41.67033647384607
MARA,14.539999961853027,2.250349429079729,0.018440168367432896,56.20933849283954
BCPC,171.22000122070312,3.1943123856361013,0.08344833983580813,70.05048342125517
ORKA,90.5999984741211,25.24191741860256,0.1692656811683837,75.19887833648545
FBIN,45.959999084472656,8.396220354899988,0.06457670952410388,66.12576813553552
BGC,11.449999809265137,-4.979256198942316,-0.07757807593303834,49.34480721570425
AX,96.2300033569336,9.265361292591136,0.13173531242892333,71.58351334982491
PATH,9.930000305175781,-2.932543993007507,-0.0034170755402276043,38.419043636274154
TVTX,58.849998474121094,6.708969802124084,-0.04494307250335172,77.40253899106716
PSN,50.939998626708984,-2.432485117858146,0.27102003369153094,42.71307279998697
GNTX,25.649999618530273,-1.156073740227503,0.004229238796974566,58.8588360776247
LYFT,14.270000457763672,-0.07002293693628113,0.003046259806111222,53.539779832672274
S,15.90999984741211,5.9254285121436645,0.08424491974628562,52.95350342438177
CE,49.41999816894531,-3.4010978961228706,0.0711077981033621,38.71569375782622
BLLN,118.16999816894531,12.382307612104029,0.5433657915669388,67.5443770947544
PIPR,76.13999938964844,-6.9193196221864275,-0.23382924174972533,39.208371593622054
BOOT,175.14999389648438,5.690316561863009,-0.10975473703134497,56.64304066691517
SON,55.11000061035156,8.741121307221777,0.09320421399713574,70.8128473829973
OBDC,10.819999694824219,-0.4599833602692959,0.01030044282768773,43.08699928821256
UEC,10.800000190734863,-10.074937677662534,0.00886641914885633,40.736770253739984
LEGN,28.690000534057617,2.721089225126139,0.023695131526321633,45.13914155920851
ACLS,173.22999572753906,-7.625448272192129,-0.4620981078953399,53.65918994823172
AUGO,64.08000183105469,0.849859785562866,0.21347787975051524,46.691340892882764
CECO,91.87000274658203,-6.636177518330125,-0.42946512775038936,53.9907889456714
UCTT,118.81999969482422,-2.028363381623476,-0.1970395081819234,63.434523100925524
MANE,119.37000274658203,29.933600933764122,0.800306844811653,70.17971465411165
ALH,26.489999771118164,-1.487540452248047,-0.003477326770819522,58.95265553457517
VAL,76.36000061035156,-2.800403534383165,0.1343684268139107,31.2988560101374
KNF,92.95999908447266,7.7922094006988365,-0.014146392431557464,69.58119855940309
FTDR,74.7300033569336,4.429857331596782,-0.029792139463256984,75.43171398454098
MC,64.4800033569336,-4.01904872875413,-0.07131067548666226,43.250995321909805
CAI,18.5,0.1624292786184145,-0.008334291130060123,57.19187668141735
CRSP,54.91999816894531,1.5344758994564567,0.04390793210135846,56.857899798712175
WSC,28.860000610351562,0.06934971448631279,-0.024127246522646972,62.303290462559865
TAL,9.479999542236328,3.1556036462945287,0.02533748800682384,46.25286054889519
RLI,57.560001373291016,8.419666995395993,0.15905033030647808,72.44167381783943
RITM,9.380000114440918,2.067470541165058,0.0068308735597270645,53.70612001882341
DNTH,95.3499984741211,15.589769600418196,0.33344639282291855,64.3472818080108
VCTR,82.12999725341797,-5.532556996682872,-0.19483983307862895,41.3171932988566
XMTR,94.37000274658203,1.1685291397399529,0.1312446097897677,66.9913559234364
LAUR,37.119998931884766,1.8940395853111014,-0.0071721438959646555,62.44125984174664
UFPI,92.06999969482422,9.633241265193037,0.24425151343195284,66.5766344005502
EQPT,19.690000534057617,-15.710616354468975,-0.3128618420332495,43.19194441316576
ASB,31.34000015258789,7.328764841556161,0.036376349580388934,75.51929797056094
SITE,116.62999725341797,5.863664511064319,0.28179343684500724,57.89260442057585
VVV,40.20000076293945,5.594959509297862,0.02144775189706638,71.93855569210503
PEGA,30.780000686645508,2.2931224013246596,0.15221203239540104,40.58203266086285
WTM,2096.56005859375,4.132399265283875,5.221031348149776,57.467478240136366
TREX,49.720001220703125,5.495438349013954,0.0070869211148838485,66.7380943385715
EBC,22.09000015258789,7.233008463720517,0.029917075487130018,71.76942429134905
CHH,112.72000122070312,-1.9826076341711956,0.017340011816574075,53.40753236159636
TNGX,31.469999313354492,12.513407529219704,0.056646809736940584,61.635396814683496
MGY,26.780000686645508,1.400987661382567,-0.0010647964065302884,42.190869875216414
INDV,41.83000183105469,9.216717139196115,0.04704308149709502,72.56299744200798
VSNT,36.13999938964844,-5.417429323272089,-0.014591702465782341,31.64126018017531
PBF,43.11000061035156,15.607400246538486,0.17275374100558105,57.231938834232174
MMYT,53.380001068115234,14.255136287241472,0.14664259247464084,69.49973048316073
HASI,39.58000183105469,1.3312863273969184,0.033853443742153155,52.34726324862018
TBBB,41.9900016784668,-0.2612750585297812,-0.0647848615476152,59.97980960457252
SXT,121.81999969482422,9.698330794324033,0.19991212394265845,59.68299452078927
HRI,151.25999450683594,-2.488396552253288,0.01373223175006899,57.694028575284875
GLNG,49.7599983215332,0.3225803474481751,-0.014499345235006844,41.296573493711605
DLB,53.4900016784668,2.216701331593915,0.09159378686178754,46.939361024926654
PRIM,93.11000061035156,-8.08489851399282,0.13259445276500692,39.3401942679079
LB,65.12000274658203,1.8295574193653834,0.33685349408779475,46.23395143046545
OGS,79.63999938964844,3.751950460223632,0.10447689313521957,53.39301348076283
FFIN,35.2400016784668,7.504585084742607,0.05616092853524596,72.07435575965246
ACIW,49.2599983215332,11.726010775805943,0.19188085896144652,68.99480557919195
NXST,164.0,-0.09746811558235015,0.3566657660979091,37.53616548969546
AMTM,20.09000015258789,-6.558138825172602,-0.030527587696747016,27.48690922138792
SHC,17.100000381469727,10.608022893118463,0.05763472544185505,65.80947382595694
GBTG,9.430000305175781,0.7478702036981169,0.0076146070395702314,76.57507696402098
ERAS,16.010000228881836,17.117777172846107,0.037955533695854915,65.63487396692233
MUR,34.619998931884766,0.9623738919411657,0.007419120293369996,40.1297577709442
GHC,1137.6700439453125,1.0875833814829683,-1.5055231673794545,50.98184743656796
RDN,37.5,8.069161889042443,0.05862759494253206,68.27688282161014
SBRA,19.540000915527344,7.836644649703124,0.04435370385276233,55.96462458380168
GTLB,29.06999969482422,9.45030225659599,0.15620729678197176,56.04570433168913
MTN,137.94000244140625,-3.235103082035326,-0.0837178328314594,55.57188374447893
CUZ,29.959999084472656,5.9405882497749865,0.05982196442874477,70.60957264643909
DFTX,44.95000076293945,83.61928759592257,0.13605259206369302,88.36771952920961
OTF,10.510000228881836,-0.9425017062321674,0.018950108790198567,43.42100179048333
CNO,52.52000045776367,3.3248053626401335,-0.0253267331933118,74.05598095620316
CELC,99.94999694824219,13.890148718420841,0.5850659461770409,48.17135768422791
STVN,17.84000015258789,1.7103718437948974,0.031571802859735446,53.54057627136387
TNL,78.04000091552734,1.7338050409700778,0.021778230315827596,70.03384574052919
SLGN,46.22999954223633,10.996393393915426,0.06096369806969326,81.51615258961036
SKY,88.81999969482422,6.575478279019439,0.02721914885069765,70.31279480314943
TFSL,17.510000228881836,7.621387438415618,0.035209105447714883,75.71475862156498
G,28.530000686645508,0.9911528730814436,0.07305653690809477,36.415898191656005
SFBS,88.5199966430664,10.017397029959929,0.16821708073040043,75.00966100667958
IBOC,77.0999984741211,4.769672932329268,0.06146931131000022,64.66286315924184
NNI,134.41000366210938,3.1226081314808,0.10454599787547825,60.24378050883418
IEP,7.199999809265137,-1.2345700008071565,2.2923460466062195e-05,38.87909349129236
DIOD,104.13999938964844,-12.824376203109736,-0.7937229705199047,46.56532812636421
VCYT,58.54999923706055,14.154802479902742,0.17997629474604615,79.00050608952895
ALHC,23.190000534057617,6.084171484772273,-0.013143920460291003,72.29408510093333
CBT,93.4000015258789,1.7429176698599866,0.04469357533555751,65.16158417860927
WEX,138.00999450683594,8.217671001217305,0.5689396881789355,48.79607443465861
MRP,30.93000030517578,8.908453241649859,0.0906468291728584,69.21165715420042
SLM,25.450000762939453,10.508033018415148,0.08085036065727941,72.21838255697776
RDNT,60.7400016784668,13.025678789297185,0.14693672749093883,63.53107995904463
SR,80.86000061035156,4.944837647877068,0.1763071960176643,50.527163275705504
CNX,33.72999954223633,3.2445712663020814,0.014361184012767647,46.8647094422508
LION,16.399999618530273,5.874757010060433,0.036578646052178865,69.51810010148108
CVCO,618.2999877929688,2.791304841940348,0.28137395342616855,66.93856972998074
CRC,53.709999084472656,-2.875226355378168,0.07642228334574086,34.58785516013327
STEP,39.540000915527344,-12.522123344858164,-0.14196787466837857,33.04831906671653
MAIN,51.0099983215332,0.6710088116724471,0.06269327520976437,50.08657264248918
ZETA,18.979999542236328,0.4232800281520627,0.07493328142790101,46.982950879548014
RELY,22.3700008392334,6.018959406650066,0.05292860590703308,64.28155067822613
FELE,107.88999938964844,3.5412692413408933,0.03305525687434163,66.2897950924433
PAGP,23.760000228881836,2.193549371534778,0.03631344544112586,46.26351541316009
REZI,32.34000015258789,6.346597549687341,0.039157575816608725,52.32959966261824
ADT,6.389999866485596,-2.887538897013318,-0.0018269354676870159,38.17630221402202
HRB,37.220001220703125,8.26061682476726,0.14411299641935146,55.115628751205726
USAR,20.469999313354492,-16.923702027548803,-0.04780147974232818,41.08472874595843
STUB,12.399999618530273,6.164377521766309,0.03561420151795491,71.91447016797923
SAIC,110.29000091552734,7.715598762546326,0.363011687987425,56.61560447626508
SYNA,121.0,-14.117396178447148,-0.5510916528312775,43.25286186335827
TXG,36.75,5.740178019200258,0.09202281009469582,68.93780470470327
AZZ,156.63999938964844,-0.3435509042468713,-0.22168906738947536,61.28430913140825
SKT,40.4900016784668,3.4755956382013697,-0.03886152613468452,63.92904707750786
MIR,18.450000762939453,-0.8597519729425028,-0.015167765015726975,54.358745393580286
VRNS,40.29999923706055,20.730970483866564,0.21258407768934195,77.5724543072127
CSW,282.6099853515625,0.9537696959601547,0.02916930683249208,54.674309039436395
BDC,119.5199966430664,-3.034240977077464,-0.2527243216205868,57.41529987288729
FULT,24.209999084472656,5.720521780630749,0.0019248969271005167,70.95707818815403
AXTI,70.1500015258789,-17.050961595105495,0.07694540689413687,39.136339598595406
MRX,64.12000274658203,4.107813910904553,-0.18561507259661036,63.96286612818178
UNF,266.07000732421875,1.9425315418462645,0.3298374471623433,53.39909982022281
BBWI,22.860000610351562,11.186776284790907,0.05743557908084651,69.47281834334211
CENX,46.33000183105469,-10.404172014447898,0.20237341654616303,32.644295074096775
KTB,83.29000091552734,6.549830966499959,0.22873514422466013,65.99092813178152
LIVN,81.05000305175781,3.2484115309016723,0.05850684706222653,69.4731206841314
SRAD,14.850000381469727,-1.394422525204136,0.003895597414513008,51.407763873600906
FCN,151.10000610351562,3.79173252028592,0.681424139614677,47.6725728093992
MDU,21.8799991607666,2.7712457485568116,0.015232795617072581,60.019597908907315
EPR,59.70000076293945,3.8080377418238553,0.04803864506487443,60.400911451046625
KNSA,59.20000076293945,7.421520789857598,-0.008426662821114816,66.80259922587881
OPLN,42.900001525878906,12.68716015175421,0.2231734624711591,75.88700807762432
IPGP,107.19000244140625,-9.168714091144272,-0.19218183257250643,44.15848875003298
LMND,58.86000061035156,0.033991260557113066,0.07100812405392137,54.40672446857478
COLD,15.970000267028809,13.503913386035984,0.11135626406045449,66.72350154176154
SEB,4738.080078125,-1.1870682351407715,0.6795972927988672,38.23549186990426
PFSI,86.08000183105469,4.491387109730942,0.21249867151825863,56.50229999968914
WING,166.75999450683594,3.0782518019009633,0.2752829345732366,58.902410667527064
RXO,27.1200008392334,6.813712056607164,0.09669489873044812,58.790296264259446
LBRDA,31.309999465942383,5.991870330256695,0.06386788034283142,43.042147446985474
TCBI,103.4000015258789,4.370648878967245,0.05049774656149264,60.79475065432708
EWTX,41.459999084472656,12.632430148605303,0.020563933233672338,66.24352744751778
KRC,37.5099983215332,3.76209332849048,0.0210945806378513,59.32327127270146
POWI,79.37000274658203,-8.885314900169753,-0.3045211452222256,50.251679214128316
NWE,73.41999816894531,5.065828641477508,0.12256606360845101,61.88819188886966
KVYO,14.029999732971191,4.234767408683382,0.0520338944994182,43.58191759444231
DAVE,348.7099914550781,10.898737039686244,1.190378983374604,71.74440814434669
GFF,96.41999816894531,5.804895286912712,0.11163387657720736,62.45383754327322
VKTX,38.040000915527344,25.213963022925412,0.075478375181393,72.57372618111879
ATAT,32.130001068115234,-3.4845293346659374,0.025540221497579174,40.926660211994815
QS,7.159999847412109,-10.945275107166779,0.00829994149670979,44.22456296228854
NVST,26.639999389648438,7.160091454525924,0.030207095761918157,67.41130044717747
LBRT,26.860000610351562,-1.1773351406595918,0.033172489845856745,39.006870962477414
ATMU,53.869998931884766,4.016215446201721,0.03182336292820309,59.44467471725313
FHI,57.529998779296875,-2.6070779134645576,-0.01906842613670201,51.63209911641884
OLLI,71.41000366210938,-7.822379583200875,-0.1653936041481039,35.972133164233554
GPGI,15.0600004196167,4.438282523832268,-0.0005648705880044735,64.24995442344557
QLYS,123.2699966430664,10.754710928212814,0.5339703476629873,73.73766494882457
IRDM,43.52000045776367,-2.3558430429661414,0.14074841328415832,47.138408877584475
HGV,54.689998626708984,3.7170474141626193,0.03431176195222285,66.53676421610703
ACAD,23.719999313354492,9.814809696501102,0.0607476346445624,69.24365103057154
VECO,70.94999694824219,-10.922792731912278,-0.4183298800299111,53.75304639825795
CVSA,127.52999877929688,7.105063497233215,0.42122367336510624,58.41008228126182
CSTM,31.780000686645508,-6.529409745160271,-0.09031626797993708,42.671440373509924
HLNE,77.7699966430664,-5.412313927959661,0.13714827599229817,42.88585123966154
BELFA,265.8500061035156,0.03010764689448579,-0.033486477829100636,57.027148449974845
HHH,72.37000274658203,8.241103927506375,0.17222984404543307,74.34410446407576
BFH,106.2699966430664,3.7691561790122154,-0.052264358851108916,78.45548521723089
LUNR,19.790000915527344,-13.391682340731592,0.20242830770667486,35.33518515073811
HCC,81.27999877929688,-10.2671703066464,-0.11919850115285824,35.96690490402088
EE,37.70000076293945,9.085646021053464,0.04683688040092793,69.74888030275652
MMSI,71.7300033569336,6.709315760680812,0.10904743920096438,67.48161559001211
UCB,35.61000061035156,8.40183337726719,0.06536852710602759,67.56552961995155
COCO,73.70999908447266,-12.270885468363755,-0.6588292511678615,41.03348452988652
EPAM,80.68000030517578,5.2713999839527865,0.4387952004342264,33.4834707377601
FLY,25.540000915527344,-17.47980521502998,0.17638379734830822,35.2157044045334
OPEN,4.369999885559082,-2.2371344368291544,0.009659694711481037,44.411345622553334
CRK,14.300000190734863,9.160303620773675,0.03809390603914542,55.26785665379287
LIF,53.08000183105469,8.282336465478352,0.23586855308072852,66.43194823943543
BRC,90.26000213623047,5.802373366892773,0.12119597184816489,63.05434490502159
CLSK,16.329999923706055,-5.278421458778755,-0.002817283384124347,51.35801185260569
PLNT,51.939998626708984,3.4455279302550856,-0.06163146224157434,46.762293541469504
BTDR,17.149999618530273,-4.350254731564886,0.014053824931079317,52.44008345054947
KBR,32.25,-4.923343924217076,-0.039065741540350835,40.11819701202012
VNT,29.610000610351562,-1.0030064814142874,-0.0733473371442514,47.883875646573664
EMAT,7.059999942779541,-5.10752838062321,0.0028684364513274496,46.63831776760478
MHO,163.0,9.329937624107517,0.2650961927795654,77.91630725108297
ANDG,36.90999984741211,-0.699484353890622,0.04447329133939748,50.716041504870105
MWA,26.700000762939453,2.1814068904705195,0.0063565939293419305,57.23433330037704
TPC,79.52999877929688,1.974613357750527,-0.24280145442005785,54.3291174427889
WHD,53.52000045776367,-5.6750107956467275,0.11658576215333172,40.79861112676417
NTSK,9.880000114440918,13.302750136352456,0.06435769879551045,49.88728566826192
EXTR,31.739999771118164,1.147229509176213,0.003420585795040232,66.69563838167197
NP,29.969999313354492,2.4965784813630054,0.05755531775432143,59.96314409654599
CATY,62.04999923706055,5.009306273191846,0.017813977495055866,69.21583271365131
CNR,81.7699966430664,-2.1538866319623704,0.11555133033558396,38.735717137283785
CAAP,25.540000915527344,-7.262163883489121,-0.05289355729822959,45.789313622754506
PII,72.55999755859375,1.6816100588263092,0.0919407531188321,60.54955513753744
SXI,340.5,8.036927846269728,0.5154023596260302,73.84121312241429
INDB,85.19000244140625,5.107957105201675,0.044462896348832714,68.66729788250544
BMI,140.8800048828125,3.9704833083487086,0.19317642283736847,64.31423634678131
IRT,16.90999984741211,8.0504614354119,0.04416246171201248,61.85861865312125
ONDS,7.675000190734863,-15.844295098208065,-0.009017043072825914,34.13644404828641
OLED,87.16000366210938,-2.00134779675719,-0.0010117479339499802,45.78931651780958
TDS,38.45000076293945,-2.8795134762683725,0.0382942576692713,40.58883964389761
DNP,10.899999618530273,1.964453193546738,0.003440312994217133,62.2996073916634
ANF,91.51000213623047,4.894548804470174,0.10196439910217259,62.23794605536112
BNL,21.209999084472656,3.0612204232367706,0.010482689421824287,62.2674526963273
THO,78.73999786376953,8.78695889982398,0.25109128372066525,56.66884873213174
SMG,69.91000366210938,8.069254944658882,0.07506919954252944,72.05833294652628
FBP,26.360000610351562,4.603173858304285,-0.016359814005417306,70.40793929634746
POST,89.41000366210938,1.1310937208212994,0.04497972913330006,40.90580291170102
DNLI,25.56999969482422,9.69541089944623,0.0026204352113563534,75.58982814128052
PTRN,22.899999618530273,7.2097329783426645,0.06862397546415466,72.00835904768213
RLAY,17.829999923706055,14.588685365506398,-0.0030696380265147205,71.74668220344705
GEO,29.329999923706055,1.6285492148808614,-0.0757801402941225,77.12591846758227
NVTS,17.299999237060547,-27.976690643780177,-0.058035176648430165,38.66736208437918
HGTY,11.760000228881836,8.187675737744298,0.027019753561664403,65.40297693067339
MAT,13.979999542236328,-0.4273534172344844,0.01905733417099542,42.12133884528557
PI,132.52999877929688,2.9679060416194685,0.2946944065023873,49.64394192766332
CNS,78.37999725341797,4.674145470591933,0.13494458259885445,65.80600133119256
APLE,16.93000030517578,4.1846172626201925,0.004460373920627703,81.6279370786532
ELF,67.43000030517578,5.031158116000553,0.027045390018584303,64.63159922538487
DORM,134.69000244140625,7.186056434932062,0.21382557730149143,68.33206713807891
MMED,14.220000267028809,0.35285949517045057,-0.014877914527736902,54.329511781643006
FMCC,6.170000076293945,3.177258471813462,-0.004581008125742858,50.32387453248163
OII,40.029998779296875,11.0094211170673,0.19644311548578597,59.698299745237264
SLG,52.15999984741211,3.1645538581142407,0.1037328012043579,66.181534583277
CAKE,80.37999725341797,4.132652819169419,-0.010553894224526239,79.54416719753287
LFST,9.880000114440918,14.750296264864057,0.012234213378929215,77.77734926412796
WSFS,77.36000061035156,4.343136292435291,-0.003919037239384249,68.23084924180017
MKTX,112.54000091552734,-6.473864204261074,-0.010160943747438367,32.253525098062454
RNST,43.36000061035156,4.005761666234932,0.00072439587884221,67.28532798643437
CVBF,22.459999084472656,7.928878716362586,0.019833260213052317,69.90811846530599
MANU,22.920000076293945,2.458646474862604,0.08416648087590939,59.047084281317964
CDNL,92.0,13.022110903463698,0.21602231678768202,75.11111202325273
LAZ,40.119998931884766,-9.435666765607689,-0.020592593672623005,36.37934085566739
INSW,79.51000213623047,-5.894183753642338,-0.5078186457689713,47.96055937274278
JTKWY,3.75,-1.31578823536055,-0.0051895051357636265,43.90954240693255
CHEF,95.91999816894531,0.545069847745598,-0.11269650242187623,74.20577603617313
PJT,152.38999938964844,-1.690210444509085,-0.10219098145153827,45.167186624277
IRTC,118.88999938964844,13.607260063200401,0.454887680110478,59.18431805637264
SKYW,99.30999755859375,7.211487102715308,0.046515181078969015,73.10021576251826
RCUS,31.0,27.51954208567597,0.09729616691950127,74.89782045340401
YETI,51.209999084472656,4.574224643520171,0.11319279488076672,64.35200657386767
NAMS,33.2400016784668,11.431450765947861,0.12127883658052296,55.80470388001181
CNK,33.439998626708984,-0.9478664417471632,-0.01883003522106863,62.021274855214386
EXLS,26.0,0.26995639799605553,0.05415971644995887,36.65309734380757
CON,30.18000030517578,5.672271952123946,0.02334321331869349,84.40926376634313
CRNX,36.70000076293945,2.313916520128192,0.05090858886979138,54.74269176904623
KBH,62.22999954223633,14.81549569421331,0.18259933459244482,71.92090827479748
BETA,16.700000762939453,3.7267103556115204,0.07483694094349944,51.33796014248417
BCO,94.08999633789062,-3.6654058545820343,-0.05149240472472627,27.432406420430198
CPRX,31.5,0.3824118624688544,0.011254343861960392,74.80483880166145
LOPE,145.25999450683594,2.591989733644192,0.2359414976475982,41.50354652144707
WBI,31.06999969482422,-6.387463150356202,0.0902882978122192,53.54544764040453
WAY,19.899999618530273,7.742286726247132,0.09037011331130795,53.52424239681243
DOCS,20.8799991607666,2.052786388503255,0.03665055474484663,49.7388518071857
ABG,205.1699981689453,4.120778985755547,0.07427381873007155,59.643744693252955
USAC,26.34000015258789,5.107744269448544,0.07769478768404514,45.99677127147892
KAI,322.07000732421875,9.917749083670717,1.2975714172933834,59.31818046155169
BANF,114.58000183105469,2.9377453455962947,0.07797494876583655,57.12506876248621
LBTYA,11.380000114440918,1.607145609296145,0.026608414697086247,44.275608920198124
MSGE,80.30000305175781,9.35585280951959,0.15758284107457898,77.99153988680028
CALM,80.2300033569336,3.2162612788270226,0.08644817164680885,57.8301823904652
GEF,74.25,6.223173646871244,0.11253530407953805,76.40852621533688
FOUR,47.650001525878906,20.939085483489624,0.33923513485518986,63.907184881554755
JOE,66.0,0.09098810490197258,-0.05193007862318311,54.30273306459303
OTTR,90.62999725341797,3.5771397181919644,0.08622095499323912,60.519877184950346
STNG,72.58000183105469,-9.92802161604926,-0.4073541417176898,36.04743372337873
FIBK,38.630001068115234,6.038980907246627,0.03418030163492147,69.05887503601944
NHI,77.55000305175781,9.502970045092287,0.16823103286823182,63.764869555531206
BWIN,26.219999313354492,29.545452617887857,0.10071204408714207,70.35566121029116
DLO,12.6899995803833,-0.7818638136668017,0.011734714677709299,56.60874088394859
MNDY,73.0199966430664,2.0830391293125334,0.44308409404318616,45.76431256251107
AAP,62.18000030517578,3.460901637044685,0.28373599599041244,59.264214890873156
BKD,15.40999984741211,13.142437422124473,0.05844805545689957,72.04006328732864
KFY,70.56999969482422,-1.5348102444876637,-0.000676317590407649,51.321067233204666
ICUI,148.27000427246094,5.627989905305715,0.2661243699099165,64.89040576728897
LRN,87.12000274658203,5.2173907434807845,0.35299603768539667,44.39283344653098
ITRI,83.87000274658203,3.7866666012080143,0.11980414371414816,55.389113781320034
ACHR,4.869999885559082,-12.567329704291627,0.0006124123329443176,36.31427029965212
WSBC,38.79999923706055,6.916501124857382,0.02839317833481836,73.14875647976248
SMR,10.100000381469727,-13.969330678208673,-0.012566908746716399,44.340383577713006
PSUS,36.95000076293945,-7.137471945821522,-0.047111206732454725,34.763322918779295
BOX,26.459999084472656,6.5217347903920615,0.11695151243339513,56.389255232779874
MCHB,15.979999542236328,9.004090781469106,0.024183800349596746,68.74512666822129
BFAM,70.13999938964844,9.048507031153717,0.16850174502351356,59.54164254957124
KEEL,5.869999885559082,-1.6750403374697294,-0.03761177326306708,56.129859578737936
PTEN,9.59000015258789,-4.482069830427397,0.013462931300070202,33.81418925775192
UTG,40.79999923706055,-3.0878842854582467,-0.062074767392329894,45.454488032370776
GNW,9.460000038146973,5.698326701123258,0.007379494425748062,69.37355920770162
BULL,6.820000171661377,-3.672312921559748,0.0003646018034363374,54.186611441740844
MIAX,37.91999816894531,0.7171225288817659,0.1835400911888767,37.90700653263606
BHF,63.150001525878906,-0.1581003543416502,0.001559439976705268,55.24828300369916
OSIS,218.2899932861328,-2.0154437192596495,-0.08582088233967067,46.601291082970064
WRBY,29.239999771118164,12.634825894918311,0.1363773907369073,63.720890716191924
BEAM,34.810001373291016,1.962513168192173,0.0063017418868963615,60.74414334360184
NSIT,119.48999786376953,10.189962351148012,0.5145191883722848,70.47224873132274
FG,27.020000457763672,-1.7097101392059226,0.01829521642711479,47.613273668433045
ELVN,50.08000183105469,11.04213642000715,-0.006114717341707099,68.02884313410404
HAYW,16.489999771118164,9.933331807454428,0.03981050972592737,73.20898918783303
GPI,301.739990234375,-3.646702418632055,-0.5135968562963598,38.60857598945217
BKU,49.2599983215332,3.61800036365603,-0.05629317837597381,58.195131824383644
TTAM,19.31999969482422,5.17146876532459,0.0005068486969160846,74.37807160141136
FHB,29.549999237060547,5.800210935137582,0.02581753895281158,70.19221678533793
VEON,51.65999984741211,-0.7111261590726597,0.030851946364914284,47.68979273079582
FLNC,19.270000457763672,-22.298382860564658,-0.06627185069042474,43.00189525987849
OGN,13.5,0.5212188624987715,0.007733145804500352,72.93913814341946
PLUG,2.5399999618530273,-10.877191338696106,0.0064442679848719375,33.28388052464915
GPCR,49.709999084472656,11.682770071963311,0.04181172103817499,73.95668162063623
CBU,67.47000122070312,8.229068103238166,0.07757843372509765,64.24500747473272
BILL,35.52000045776367,9.393283407442079,0.20073478297262493,53.06452060527243
FFBC,33.779998779296875,6.864910240573317,0.03645215606295571,73.86074451489492
HAE,77.29000091552734,4.206556321432355,0.12055884387808691,65.27850521461592
IDYA,36.7400016784668,17.643298805619857,0.003517596099009812,73.85091432591678
BLSH,23.290000915527344,-3.360993581415808,0.08312305530560371,34.13543676196481
UWMC,2.180000066757202,-1.8018000602490185,0.013099818568826666,33.145829649292864
GRBK,80.23999786376953,7.545901631633079,0.0396856151785594,72.58372004747118
XXI,5.320000171661377,-3.6231849629747175,0.005892192398581908,34.421230371812115
AVNT,37.90999984741211,0.6638343096466564,0.03450511045192839,59.609626927324406
VAC,101.30000305175781,3.399001520427651,0.05557236849033487,72.78651676364368
LASR,62.439998626708984,-3.2687905891452456,-0.04512011545244898,40.02177647655806
NIC,163.25,11.167853738408361,0.25606243275048257,72.60429198606701
AGO,79.7699966430664,4.247255805773075,0.09656810781369946,61.2153714553734
NEA,11.619999885559082,0.25884152352226564,0.0021539186347031627,59.18847436241606
YSS,26.260000228881836,-14.740256885188138,0.036717582487806655,44.36159124281617
SUNC,67.0199966430664,6.246028372928858,0.23524218121995566,54.71497119066778
IPAR,107.97000122070312,8.96155536481427,0.23732623036749745,70.99955391208724
DYN,20.610000610351562,7.3437489134570395,-0.006006175869520125,62.11197218131914
AVA,41.77000045776367,5.0553375781756325,0.08697112701128662,55.27381043156506
CLBT,13.760000228881836,7.248638431068227,0.0873702944164097,56.04004126967504
KN,40.04999923706055,-3.190717256235813,-0.07549221495359482,55.99475275579768
SIG,87.54000091552734,-0.7820496601534197,0.1537194656190598,53.10758821348243
KEN,65.86000061035156,-3.98016602026111,0.16364610717311834,30.540083291048106
OPCH,21.81999969482422,-0.773079027118612,-0.01751372145041047,51.90092853473453
KYIV,14.979999542236328,7.769783837017466,0.04115436599949229,68.52769234244462
PVH,74.37999725341797,-3.4903366446839397,0.22122122848843695,39.62593641304523
ARQT,27.0,3.0141203476628755,-0.05859932386040012,68.88555626607028
ALMS,26.399999618530273,12.772318627113096,0.0490842254379108,67.90445613769549
FUL,63.25,-2.482270421216445,-0.04353964309310676,52.77221378838549
HWKN,161.58999633789062,0.08671377658391573,-0.28110951208650303,53.85672596858894
HP,33.79999923706055,-3.345730462685564,0.04083009450511088,37.45404066201538
JOYY,66.66000366210938,1.4303140960839336,0.019078944943405673,55.74672597952765
ADEA,30.700000762939453,-3.489464701787745,-0.0034613717134791555,51.42327530408655
ADPT,20.959999084472656,19.566447595407958,0.09779828739378882,73.1082941257948
CALY,19.25,5.653132411978526,0.03363043145103328,74.92379944221169
PLMR,126.31999969482422,13.088633076110487,0.4913137530474363,68.706467008276
AB,35.86000061035156,-0.2503481242778471,0.033510712417612054,40.08312544028484
CRGY,10.119999885559082,-3.0651312996745355,0.013486246484801734,29.339761906430837
TOWN,36.36000061035156,5.571843479682455,0.03885423436219354,68.20225859832762
RHI,32.7599983215332,3.703697889502748,0.1719565266932941,63.5061108735109
TENB,30.219999313354492,12.467429733867732,0.19577850556188503,67.84503922483104
WDFC,248.3300018310547,9.295363097182856,0.2230795151477647,78.20771461189685
TDW,67.31999969482422,4.097729396800019,0.23046324249992356,37.89883726161416
CURB,31.65999984741211,6.028128601030709,0.015477587586228525,73.40392887976728
HG,33.54999923706055,6.915233060321513,0.05870692632690616,66.99361801585756
PPLI,44.77000045776367,4.798687215549677,0.16876786985365114,61.27544003957952
BATRA,56.5099983215332,3.688070314739822,0.03135185495086934,64.29179225333036
PRK,184.11000061035156,4.24074606512951,0.17752520962897167,67.04047373553945
BHE,92.05000305175781,-0.13018891132833912,-0.1910768956357365,56.507351422050796
ICHR,94.0,-4.67498284334016,-0.290084769477005,62.5336592885133
SFNC,22.93000030517578,4.703199564323243,0.003338991533197888,69.01180887695044
GBDC,12.59000015258789,1.9433179247367975,0.02108655241948905,48.60502247685205
COLM,64.51000213623047,-2.934091145207033,0.026932505340816593,51.09206998005197
HIW,29.899999618530273,2.117482641206169,0.027066430241485362,67.18311073856167
GPK,11.010000228881836,2.801122219106629,0.022039128555203652,57.301572691754416
LXP,55.599998474121094,4.550579456671768,0.07222342768206536,66.28647700238868
LEU,165.52000427246094,-13.516900151360108,-0.6337871592039077,44.77295107448002
ETOR,40.72999954223633,4.195444827952665,0.23479534690099588,57.73079101373279
CSQ,20.040000915527344,-2.3391790035497877,-0.013824598818414191,49.34243017703288
ARCB,146.2899932861328,1.2177364711138758,0.029689932154564502,50.89393644422705
SBCF,33.45000076293945,8.463036956673129,0.06901083267743158,70.33912282269459
BOH,81.98999786376953,5.317918395367287,0.010876823944231173,64.08061566151963
UPST,33.65999984741211,3.7927830115993615,0.06890308879924217,58.06126771971774
AWR,82.56999969482422,7.080792428031292,0.1697930160514564,69.30623712206632
PRVA,25.56999969482422,8.027036807799453,0.05512434204416489,72.53054526308144
RUN,13.489999771118164,-0.22189856235012428,0.003101055584441542,49.50368178816914
RGC,6.480000019073486,-46.04496340066438,-0.00032231749340150273,15.103439679804424
NHC,206.5399932861328,2.485979525223226,0.2215456658629833,65.49449229895453
CRVL,62.9900016784668,7.620029031586971,0.1546379746421227,60.58972501462274
BANC,20.809999465942383,3.583869128352125,-0.012652247743305589,67.75776684542429
CWK,13.649999618530273,5.813953660298242,0.046344707810384383,57.72439212852153
NATL,43.22999954223633,-0.9168038415915305,0.0003389672298150792,37.259359881086525
ITGR,93.88999938964844,3.2211964980944545,0.16003603482918127,60.510149673789655
AD,37.06999969482422,-4.606281233692316,0.05658434572943549,38.9769955550564
PENG,62.279998779296875,-7.252423880742851,-0.26925566943533585,54.24373663233445
CHRN,22.229999542236328,-4.714960930419872,-0.12983814562595142,58.54834554116196
PHIN,84.81999969482422,5.001239139115655,0.07703832386289333,61.274417148269585
MZTI,115.91999816894531,8.275733992523678,0.3116840745037712,58.54474629287461
SEDG,51.75,-10.85271200664973,0.17588382259359436,42.50796935960654
SHOO,43.220001220703125,-2.1950609553076132,0.09058733423810206,52.3593523238407
CTRI,30.649999618530273,2.95599310458562,-0.049570353611328555,48.63495561536415
ALGT,116.0999984741211,15.224291398039572,0.33502748865801646,77.17259445707467
PATK,95.33000183105469,9.110677388394675,0.3166339698341587,61.87100964461748
RNG,37.18000030517578,6.167903538485687,0.23557067104802765,44.75017621745245
CC,20.739999771118164,-4.731284634760705,-0.019800100685900435,43.97730958665715
ARLP,24.479999542236328,4.081628681073312,0.024221502520083538,45.3965998977699
NMIH,40.619998931884766,8.377799967980156,0.07133746238947558,71.61213366871087
ZIM,25.579999923706055,5.09449368670741,0.004515177122099284,52.27368739713569
TDC,32.849998474121094,6.37953162854162,0.1584134808276838,53.15609406951938
ATRO,84.31999969482422,4.667331492277794,-0.22754503875913468,69.83657889424998
PFS,23.639999389648438,4.049296232826831,0.00602883760825218,63.446438401506626
HTFL,35.650001525878906,5.975036185193804,-0.004014854585770777,69.51943116330492
FA,17.81999969482422,10.889857082969549,0.07493313533982726,68.18663343979678
FIZZ,32.72999954223633,-9.809868513306661,-0.046466735054696784,35.40079805077059
KALU,187.1699981689453,2.4186036492176815,0.5272059449168696,56.74636987867579
USLM,106.33999633789062,-6.390847036749168,-0.1439663971568288,44.48251272978918
VERA,42.459999084472656,21.003131660976145,0.13090469375924108,72.81728590609698
CXW,30.770000457763672,6.470591224625416,-0.008935712319537048,85.22694638421572
RARE,29.25,8.69565279025048,-0.030797667929709505,71.049648865409
DAN,28.1299991607666,-3.5983589219597665,0.06441378199832282,33.663368832586386
CLMT,35.08000183105469,7.475497815665036,0.14133456880137502,56.71544834201508
MGRC,123.30999755859375,4.332003563267362,-0.0032463019561319584,75.59017886602669
COHU,64.08000183105469,-7.665705443594866,-0.311001649675819,58.72070766356044
ASO,48.5,-6.4067921929297516,-0.07777744173759604,41.918905378205245
ARX,13.739999771118164,5.773672157158482,0.0712449643816464,47.9571864164396
MGEE,79.77999877929688,5.0843001889461,0.07955661780696033,64.50350991299001
CPK,125.9000015258789,4.394695786745894,0.2773615274977512,58.490488195786085
RH,159.0399932861328,7.394150326844527,0.36059311891188983,59.42463183376019
BSM,14.100000381469727,0.6423993655785522,0.00046141324590087684,55.977421597960685
ADX,25.059999465942383,-0.9094560745695608,0.016694701205346912,53.082126822996685
CARG,33.029998779296875,10.026643156678459,0.10176693165370265,66.34555208559902
INFQ,13.630000114440918,0.739101134097114,0.011924692941028409,47.73678621956909
HLIO,90.47000122070312,-0.02209818050444725,-0.12551744642225637,62.12546559934193
QTWO,47.90999984741211,11.808638397844897,0.283336237005416,57.056845981960855
AEO,17.8799991607666,0.39303591759268397,-0.027899567803325698,53.72030053575573
NTCT,41.59000015258789,4.839934641453059,0.10328918191842906,58.35170286793862
PAY,23.43000030517578,11.200762432527654,0.1548482099688726,56.6884974810543
PK,14.779999732971191,0.4076050601491839,0.0015885562804491826,72.58338662839374
UNFI,49.130001068115234,-4.9893600116735195,-0.095285770945816,45.226861442949335
QURE,47.5099983215332,2.635552780031655,-0.3229425942083184,73.235756677221
UE,23.399999618530273,5.074086832237429,0.019041079596357924,62.131371979954096
EXPO,60.83000183105469,6.9256503492302075,0.2048505995121901,60.008541332855785
DBD,84.9800033569336,1.3960217544713114,0.04069161426085888,63.18193992767716
DBRG,15.800000190734863,0.1902329239085237,0.003657847545753091,63.359270443881464
VGNT,41.400001525878906,-9.784262199799365,-0.041687838735658955,40.49903644780478
CCC,5.010000228881836,13.605451297732374,0.03975897127117542,59.70898767627275
BXMT,17.43000030517578,-3.648423669679694,-0.00918218362800316,38.855112813107304
GPOR,162.8699951171875,1.344028568903005,0.23826765837756625,40.415039094459274
DK,47.81999969482422,15.312269802757989,0.2274953132400463,59.14836215412368
CWT,49.08000183105469,8.584073014654766,0.12442110507164295,72.03640202431585
PENN,21.8799991607666,2.7230044341827693,0.05031537726086621,66.83127841217421
AKR,21.8799991607666,3.5494558910942704,0.02452919864574018,52.85748610157024
HTGC,15.579999923706055,0.5810210065703174,0.02563433064374843,54.67259715478497
JPC,7.769999980926514,-0.6393886142874677,0.0007544011567283356,49.56245831913734
AEHR,91.80999755859375,-20.372944381119808,-0.6273536653489993,44.73018298761423
EXG,9.510000228881836,-0.9375015522042294,0.0010838202969813832,54.523375678927465
ASH,64.43000030517578,0.10876273175945263,-0.13320202755916855,59.34843865230699
FSK,10.399999618530273,1.2658145566909675,0.02090808303909744,51.48857492248073
TR,38.040000915527344,4.966885081934409,0.07481671999346351,48.46455239467991
AGYS,102.58000183105469,17.220888272136165,0.654495629735385,74.9889965059526
PLBL,7.829999923706055,2.486911787183828,-0.043432019115976106,54.40637802932528
FBK,55.4900016784668,4.206575922003374,0.05175687554929059,61.377210178882365
APAM,35.56999969482422,-0.8639948831174878,0.041222752189985834,46.0908357772546
OSW,28.200000762939453,2.4337088978677537,-0.002925040043794458,69.69710567683875
IRON,74.77999877929688,5.63638622992919,0.2555090227109135,65.84874001161432
BTU,23.510000228881836,-5.2016090639670916,0.0274367776968667,38.177176072071056
CLOV,5.409999847412109,8.199996948242188,0.0024439169095891167,76.00108514661899
BCC,81.0199966430664,8.518607914540976,0.17917743140353193,70.05299546133138
NESR,28.239999771118164,15.077419386931226,0.1528639989860375,65.02204693648878
HNI,39.61000061035156,13.625932062059412,0.1026465472267799,75.16998072042983
ROG,160.52999877929688,-1.3216092901905154,-0.48539852287707763,58.81950199139577
BKV,25.950000762939453,5.702654050455005,0.03570388061241592,48.04999674738966
MMS,54.529998779296875,-2.1707981032181496,-0.014800880449696852,32.72818913296807
TRN,36.11000061035156,4.757758432173866,0.0009774650441863875,63.97917241150625
VISN,12.579999923706055,-0.6319109373639357,-0.004924586120257424,56.86213744872346
FRSH,9.850000381469727,11.17382351190473,0.04919786199330714,59.910955347554
DHT,18.079999923706055,-0.16565812056549356,-0.1250830425067327,51.89994358139083
GRAL,65.91999816894531,3.420138740308476,0.13013159014338943,56.69975377790474
FRPT,57.43000030517578,4.399203885623986,0.20767806955973533,59.16999279979943
FCPT,25.579999923706055,4.450796908023505,0.03942859879147202,59.602974483690005
NG,6.360000133514404,-18.46153874369062,-0.010526428347930994,35.489390088145086
SPNT,23.850000381469727,4.789104312945961,0.02295828949870185,59.90179316589426
DX,13.140000343322754,1.9394879235166536,0.005322274462549917,59.95141212159751
IVT,36.16999816894531,5.35973271118843,0.031951090798554516,75.75204514123261
NAD,12.039999961853027,0.5847927590864964,0.0011532184480462226,62.429893281527725
WAFD,37.95000076293945,4.029608659948491,0.004664311351704087,68.11859051956061
IHS,8.239999771118164,1.228494147146317,0.004181515496955085,49.134393053954945
CXT,48.63999938964844,3.6437227218259047,0.004483658356099096,70.68142425273439
SOUN,6.409999847412109,-9.971910808411783,0.01866357938371327,36.47340701230076
SBLK,24.399999618530273,-5.462998359502783,-0.08456449629625842,36.625223269299546
KWR,160.6300048828125,6.958325154264353,0.3728999717753858,69.41600837184562
CLDX,35.2599983215332,8.72648162111105,0.051542664849357434,68.63276188370361
WTTR,19.65999984741211,11.073440677904003,0.07029210842734218,62.68651567316217
AMBP,4.610000133514404,6.221197498472803,-0.0005573377062227935,73.59772441493743
WOR,56.349998474121094,-6.705302896428825,-0.13862506759635718,45.14726358717489
WK,49.04999923706055,3.546549172592386,0.15865509358631436,50.43322491857888
RUM,6.320000171661377,-14.130434007973678,0.015514134068296326,38.760210486528294
VC,103.08000183105469,-9.427990473345586,-0.6758453678068364,37.24807136804335
CUBI,81.01000213623047,6.88745369791081,0.13661959570947535,66.31359879617615
PARR,54.630001068115234,7.349187901989939,0.22473015659927742,48.05066394459417
AMBA,64.11000061035156,-2.6866981130218184,0.02655162754123408,42.852112349599516
SUPN,46.84000015258789,5.543035207901426,0.14707723336878464,56.05088612643309
CVI,27.100000381469727,-1.0948877417416503,0.07936627112629968,32.914177874335024
CTOS,11.9399995803833,5.944978663759328,0.005976508884701359,74.73895543174655
FRME,43.68000030517578,7.269152740024268,0.0502115473879694,70.0922953355046
KLRA,20.829999923706055,4.67336845730285,-0.02145842155530575,49.08702466301004
NMRK,15.270000457763672,2.689983693900685,0.010533315582657098,55.358832811258026
KMT,35.779998779296875,-1.4867866741868299,-0.02635339867369102,52.387804406855956
TARS,62.91999816894531,-0.3799899921574028,-0.21230822227135393,50.64003541562433
MPT,4.53000020980835,0.0,0.0123553607420427,38.79509671134497
NVG,12.770000457763672,0.709780366102625,0.0045195056693937835,61.38491672877114
TRMK,46.59000015258789,4.2981913193302255,0.027610401315172284,65.09485767882877
UNIT,11.069999694824219,-4.896912643353263,-0.02207791265786313,43.5498170191997
MGNI,17.31999969482422,-5.04386013069312,-0.0944902421595264,60.795459575126294
DKL,50.7599983215332,0.6943036603461953,0.0890930308964735,49.88876951922935
EEFT,70.43000030517578,6.971452342933423,0.2919482221613354,56.783635277302494
GRDN,38.880001068115234,-10.414747232366913,-0.09068226252529055,43.773072435885915
NGVT,77.12000274658203,5.0538058839351,0.11863531347431477,68.57937452048559
DCO,177.66000366210938,8.250066382986319,0.5158339318083183,74.64736969000253
OUST,42.02000045776367,-9.770236776630757,-0.07210559755310086,52.911970004107474
FSLY,17.110000610351562,-4.413402374382709,0.05134378618308855,43.24215340514034
HUBG,43.75,-1.3528714650829177,0.0056453817195771805,52.23837452011976
STNE,10.989999771118164,3.777144596475998,0.01468732586103115,51.72536835006866
UTF,27.729999542236328,2.8179467861740486,0.022228113041551728,69.58336134939967
SAH,84.51000213623047,4.68227254071113,0.16652487361315482,59.22625681401038
DGII,70.55000305175781,2.157552194958987,0.11663715784051787,61.25947328599651
TRVG,5.309999942779541,14.193544814539575,0.014432015655486963,72.24088562490363
BBT,31.329999923706055,5.844592972773565,0.03754088628786234,67.66786226275433
ABM,44.83000183105469,3.104881101728098,-0.004165076549208058,64.43757392486317
WT,17.200000762939453,-6.062254152806443,-0.0341258393506568,41.35663516790691
UA,6.050000190734863,3.0664447816873732,0.009918170429218325,59.54794531576735
ATKR,77.83000183105469,-4.1148163277506,-0.04527902669683903,48.05460167190278
HOG,25.190000534057617,-1.8698852388380167,-0.02777246862828936,53.07476897542639
ESTA,88.37999725341797,4.209409029115664,-0.11026065173353983,69.40179155490642
RDW,10.930000305175781,-23.832752511353377,0.05928840031695093,37.550840032739536
TBBK,62.27000045776367,10.859894049615379,0.07501311886031892,71.61426251886196
PDFS,63.0099983215332,-3.5954747045185482,-0.2780762988926151,57.29478223786477
TRVI,18.149999618530273,5.461944125875707,-0.019846389664995634,76.69596519869417
FBNC,63.529998779296875,4.5589212216649955,0.05106333116791251,67.48468837246858
NBTB,49.59000015258789,6.233932794318029,0.04814051002242514,69.22203046707547
AAMI,72.19999694824219,-3.925488380224244,0.05746784366655566,46.90345780236782
GRND,14.34000015258789,7.415728410707155,0.040922790611993415,68.21779897010359
PSNY,17.43000030517578,-13.153958294923433,-0.13496150651561084,34.54745671882365
NIQ,8.630000114440918,4.227057883540929,0.03525007740558217,50.68937203316838
WERN,42.77000045776367,5.111825758798061,0.11914683984006236,60.017168925952184
GDV,28.770000457763672,-0.6903654136388796,-0.011487094749774301,48.047081519966824
DRH,12.470000267028809,1.2997550118450063,-0.0007722148454670785,74.98697937473884
HTO,60.689998626708984,7.055918322276049,0.11608972837270498,66.65429582696109
BCRX,9.9399995803833,10.567295144068474,0.0030600863778459664,68.11508719664691
ACHC,27.420000076293945,10.253313835992412,0.12243388239480621,61.72398861657612
ATEN,34.97999954223633,5.171380960622481,0.011882908119360103,74.4795232175807
DXPE,163.36000061035156,-5.947378482270146,-0.4590625722149535,52.100736472492414
CENT,44.90999984741211,4.006483395112347,-0.009824509120761604,71.15074871814527
PAGS,9.069999694824219,2.834467218255187,0.01948043342828973,51.225164050367965
BUSE,29.799999237060547,5.56145844945999,0.02909126971952536,73.14223428830572
WHR,38.97999954223633,0.30879806999488363,0.12859900799879087,42.525767756667555
HIMX,15.09000015258789,-10.9734544343997,-0.04008072132026985,39.28341547242894
BLBD,78.80999755859375,6.5143936126323565,0.08596574255034573,67.19887697363764
KD,11.319999694824219,2.909088134765625,0.034274584491045035,45.984859536795824
GCMG,12.34000015258789,2.4066386494832233,-0.01239854175454319,72.9158922647851
MBX,52.310001373291016,21.566355698943337,0.06721152240797323,82.51953550081247
PTY,11.899999618530273,1.0186747731683967,0.008411995651479588,58.100441174882775
KC,8.579999923706055,-14.71173393814863,-0.0038444285573253634,24.507425332526836
PTON,5.71999979019165,-0.8665544350111859,0.01003362241335548,52.15732798186603
DNOW,13.550000190734863,0.3703717832212095,0.010427701577694015,53.161027637724374
SPXX,17.8700008392334,-1.4340779568034434,-0.007332057254361507,52.908066508636686
OLN,21.729999542236328,-1.2721521296400848,0.07076153513236494,33.07637830872399
NWL,5.820000171661377,18.292684581528878,-0.0005047931038276721,78.14419798476996
MTX,79.80000305175781,1.436386054548766,0.09097706092449948,59.63127104198308
EFSC,66.86000061035156,7.6477217087779925,0.08551341323812323,73.83674802130577
SHAK,56.869998931884766,-3.740695380290697,0.06607323901609874,41.338959588332415
PBI,18.1200008392334,3.5428619384765625,0.04132274602596109,71.07547009998767
NZF,12.720000267028809,0.15748392176416234,0.003334281283229573,60.51374735059879
WIX,44.099998474121094,3.78911916228569,0.2711598574680707,38.79598446993853
SDRL,39.040000915527344,1.2973533682469518,0.14069264095347478,32.729730941141895
WLY,48.189998626708984,3.190573531964426,0.18596086536499656,68.27945966619606
INOD,73.9000015258789,-22.61779944934146,-0.17579981580049342,37.99364618414572
PAYO,7.130000114440918,1.5669534731236032,-0.018369353923591902,80.09607646108537
SKWD,59.189998626708984,17.068823217985273,0.24594396578869815,82.41105588209493
INTR,5.440000057220459,0.0,0.013394893609842973,37.591809221380494
TMDX,68.44000244140625,-13.136182705744066,-0.6762487122833449,40.30812492478197
PHVS,34.0099983215332,3.689021684809933,0.017353142084534978,65.23977578943195
ANDE,71.08000183105469,-0.19657313570466597,0.038306721241033403,48.419604911126406
WOLF,45.970001220703125,-19.926839674472966,-0.00011916973533043773,45.85400902925465
BHVN,15.829999923706055,16.654386733286593,-0.0038024109162388964,74.62823200385021
NTB,60.34000015258789,3.004435415705612,0.06369709251056144,66.4330128806519
BRZE,19.56999969482422,-2.97471680317401,0.06186719987661454,37.740948877041944
AXGN,44.4900016784668,-0.17948848307197052,0.0015282641518459261,58.38889041864312
MCRI,133.8699951171875,2.456751389185062,0.15467520904304877,76.36515056835289
VCEL,46.22999954223633,15.286786287713422,0.21346731871311841,82.73768786396217
NRIX,22.899999618530273,30.484333983172295,0.12836674100762613,82.12018543914542
WU,7.539999961853027,5.898877570852176,0.02681283162740855,50.173678949009584
MLYS,26.68000030517578,8.323188040033104,0.06943904160648284,53.20904727300165
TNK,67.98999786376953,-8.676963531595122,-0.457493687651602,36.93982919085062
LU,1.2699999809265137,1.5999984741210938,0.004152393326365106,28.149157023293213
GRC,89.25,1.6862292509276404,-0.08055143821883037,68.52457771730786
NN,17.209999084472656,-5.33554017832975,0.08520177429944109,40.02884503854549
NTLA,16.68000030517578,6.445438570289448,0.02765443548661256,65.46873429836151
PBH,47.18000030517578,2.2540115502486744,0.033399946640078726,46.17697534133434
HTH,39.939998626708984,5.493919658809291,0.048578508998233405,66.56650427856775
KYN,13.880000114440918,4.59683222030609,0.021012737584640347,53.198232583627004
LCII,95.87000274658203,4.29722003516228,0.22058856373168734,43.208754565751825
BFLY,8.890000343322754,-0.11235141164164218,0.02912120236398741,72.68309091954391
HAPN,20.100000381469727,4.633010616416186,0.01968128611934883,67.27610568612147
VCX,81.54000091552734,-18.87374471944726,1.275214724528297,33.99334123553389
DRVN,14.069999694824219,10.962140033080765,0.07324770660385332,58.945404382520195
XIFR,12.029999732971191,1.7766501147959266,0.03187552043854738,57.58951821542559
HE,13.569999694824219,4.224264345033789,0.024920524963025437,51.733254543702735
CHA,12.140000343322754,4.20601494280819,0.040401247658301,57.96457191625795
AVPT,10.890000343322754,4.6109558400231005,0.04117494198443709,55.8907581128725
LCID,5.920000076293945,10.447759866236506,0.05280228859431918,55.44247515628844
SLS,12.390000343322754,53.91304409635925,0.1786340279235682,78.74190384178843
HCI,180.4600067138672,10.28540079987646,0.31250688129984283,75.82262601729141
TE,8.210000038146973,-12.19251654344379,-0.0285981358432435,46.60248605077009
MBIN,50.0099983215332,1.8741050439715932,-0.022923347154892082,62.128660761842156
VVX,72.4800033569336,-15.277614527864902,-0.2631902440453531,35.74967753834916
ALRM,46.34000015258789,4.416401616269486,0.16000841178153427,57.17504989763627
TNET,49.90999984741211,10.200924792432126,0.23450136620912554,64.99535970906655
RLX,1.8600000143051147,1.086955465418649,0.005631523923292067,38.72370035732317
RAMP,37.70000076293945,-0.10599076244918917,0.021619961324271575,71.58465647179068
CALX,35.56999969482422,-6.271412438124255,-0.021206260124355003,30.79114198775295
BANR,67.94000244140625,4.910438851571171,0.06579171082057889,62.12312528570188
DHC,9.489999771118164,7.110611048005233,0.009712902642396576,67.01644215738386
RNW,6.190000057220459,-2.0569637802200256,-0.007881010319826992,52.5901109071575
UTI,40.02000045776367,3.2774205361643145,0.05858216540050104,51.55025299539776
AGIO,37.900001525878906,10.948482714206252,0.03188855204437968,78.74477196373563
IMNM,19.959999084472656,6.510135156109974,0.04436644484295171,51.53918394157113
ABCL,7.380000114440918,33.45388489047965,0.07826445610648367,73.39667892694936
GOF,10.6899995803833,-0.2798571445728415,0.008651201984586951,44.29480332867313
IMAX,41.08000183105469,-7.331377996296999,-0.24948138494384464,50.2886017194541
SYBT,76.30999755859375,4.277121126489793,0.06149794761378302,65.92385631673335
